 Matrix for average pressure
k, r, a(k,k-1), a(k,k), a(k,k+1)
     1   5.384615384615384E-001  -1.000000000000000E+030  -1.745117152055719E+009   1.745120866341434E+009
     2   5.395320768422367E-001   4.341517007716752E+008  -5.802316683284662E+008   1.460799675567909E+008
     3   5.427391077746332E-001   7.233437373469011E+007  -1.165506682518483E+008   4.421629451715823E+007
     4   5.480688982599232E-001   2.901068318519428E+007  -5.031295152340897E+007   2.130226833821469E+007
     5   5.554986253170042E-001   1.563049205152470E+007  -2.823657436112545E+007   1.260608230960075E+007
     6   5.649964737139855E-001   9.811972181033149E+006  -1.820502763382994E+007   8.393055452796793E+006
     7   5.765217722058951E-001   6.770901294177487E+006  -1.280684523730546E+007   6.035943943127974E+006
     8   5.900251676951942E-001   4.986305275908343E+006  -9.571578641305983E+006   4.585273365397639E+006
     9   6.054488365693190E-001   3.852120691287336E+006  -7.482028487737804E+006   3.629907796450468E+006
    10   6.227267323102658E-001   3.088180843873033E+006  -6.056411748098361E+006   2.968230904225329E+006
    11   6.417848683159209E-001   2.550502171290022E+006  -5.042418557088568E+006   2.491916385798546E+006
    12   6.625416347220497E-001   2.158957701605353E+006  -4.297496623446099E+006   2.138538921840746E+006
    13   6.849081478682646E-001   1.866102454494147E+006  -3.736177887523318E+006   1.870075433029170E+006
    14   7.087886309115039E-001   1.642413692201792E+006  -3.304719050208723E+006   1.662305358006932E+006
    15   7.340808239571780E-001   1.468763329985340E+006  -2.967986672236349E+006   1.499223342251010E+006
    16   7.606764219517372E-001   1.332339614509768E+006  -2.702267561911082E+006   1.369927947401315E+006
    17   7.884615384615383E-001   1.224324163306001E+006  -2.491132178157572E+006   1.266808014851571E+006
    18   8.173171933520378E-001   1.138512143858391E+006  -2.322956106020598E+006   1.184443962162207E+006
    19   8.471198222789935E-001   1.070463200046384E+006  -2.189383487830629E+006   1.118920287784245E+006
    20   8.777418058099575E-001   1.016963338137901E+006  -2.084347072557325E+006   1.067383734419424E+006
    21   9.090520159102780E-001   9.756756905063555E+005  -2.003429061326547E+006   1.027753370820192E+006
    22   9.409163774534742E-001   9.449099291131161E+005  -1.943437721950630E+006   9.985277928375136E+005
    23   9.731984423515125E-001   9.234687570476549E+005  -1.902125356118164E+006   9.786565990705087E+005
    24   1.005759973846467E+000   9.105463577697519E+005  -1.878002511792670E+006   9.674561540229178E+005
    25   1.038461538461538E+000   9.056635051872979E+005  -1.870221009747258E+006   9.645575045599604E+005
    26   1.071163103076610E+000   9.086301873088991E+005  -1.878509570056395E+006   9.698793827474964E+005
    27   1.103724634571564E+000   9.195307139063182E+005  -1.903153495615609E+006   9.836227817092906E+005
    28   1.136006699469602E+000   9.387293417726215E+005  -1.945015768911246E+006   1.006286427138625E+006
    29   1.167871061012799E+000   9.668971146847870E+005  -2.005602283070299E+006   1.038705168385512E+006
    30   1.199181271113119E+000   1.005063416459445E+006  -2.087179839991060E+006   1.082116423531616E+006
    31   1.229803254644083E+000   1.054699251606876E+006  -2.192963247984687E+006   1.138263996377811E+006
    32   1.259605883571039E+000   1.117844288786599E+006  -2.327399119729795E+006   1.209554830943196E+006
    33   1.288461538461538E+000   1.197297490774709E+006  -2.496591736609214E+006   1.299294245834505E+006
    34   1.316246654971339E+000   1.296903916852850E+006  -2.708945807660242E+006   1.412041890807392E+006
    35   1.342842252965899E+000   1.421992090121611E+006  -2.976151831272178E+006   1.554159741150568E+006
    36   1.368134446011573E+000   1.580055025487064E+006  -3.314731048895056E+006   1.734676023407992E+006
    37   1.392014929054812E+000   1.781839429555207E+006  -3.748527406162759E+006   1.966687976607552E+006
    38   1.414381442201027E+000   2.043145085488223E+006  -4.312866495599450E+006   2.269721410111227E+006
    39   1.435138208607156E+000   2.387914245816024E+006  -5.061783935142391E+006   2.673869689326367E+006
    40   1.454196344612811E+000   2.853784334489649E+006  -6.081210921083110E+006   3.227426586593462E+006
    41   1.471474240353758E+000   3.502631184345258E+006  -7.514470263813701E+006   4.011839079468442E+006
    42   1.486897909227882E+000   4.441972223060715E+006  -9.615233350738503E+006   5.173261127677788E+006
    43   1.500401304717182E+000   5.872187548706273E+006  -1.286788033944521E+007   6.995692790738941E+006
    44   1.511926603209091E+000   8.202443869863629E+006  -1.829509069814593E+007   1.009264682828231E+007
    45   1.521424451606072E+000   1.237895471826140E+007  -2.838061828732475E+007   1.600166356906335E+007
    46   1.528854178663154E+000   2.102355855740675E+007  -5.057584049399640E+007   2.955228193658965E+007
    47   1.534183969148444E+000   4.386467039104569E+007  -1.171702082765160E+008   7.330553788547033E+007
    48   1.537391000080840E+000   1.456891708988744E+008  -5.833480080506039E+008   4.376588371517296E+008
    49   1.538461538461538E+000   1.745120866341796E+009  -1.745120866341796E+009   1.000000000000000E+030
 LU decomposition for average pressure
k, r, a(k,k-2), a(k,k-1), a(k,k), a(k,k+1), a(k,k+2)
     1   5.384615384615384E-001  -1.000000000000000E+030  -1.000000000000000E+030  -1.745117152055719E+009   1.745120866341434E+009   0.000000000000000E+000
     2   5.395320768422367E-001  -1.000000000000000E+030   0.000000000000000E+000   7.233437373469011E+007  -1.165506682518483E+008   4.421629451715823E+007
     3   5.427391077746332E-001  -2.487808341464363E-001  -2.019496899903844E+000  -8.929374565953818E+007   8.929466970263638E+007   0.000000000000000E+000
     4   5.480688982599232E-001   0.000000000000000E+000   0.000000000000000E+000   1.563049205152470E+007  -2.823657436112545E+007   1.260608230960075E+007
     5   5.554986253170042E-001  -3.248904273296706E-001  -1.362846931193040E+000  -1.717986037724921E+007   1.718016059000625E+007   0.000000000000000E+000
     6   5.649964737139855E-001   0.000000000000000E+000   0.000000000000000E+000   6.770901294177487E+006  -1.280684523730546E+007   6.035943943127974E+006
     7   5.765217722058951E-001  -5.711322423799705E-001  -1.239551963167589E+000  -7.481694703088673E+006   7.481866164273796E+006   0.000000000000000E+000
     8   5.900251676951942E-001   0.000000000000000E+000   0.000000000000000E+000   3.852120691287336E+006  -7.482028487737804E+006   3.629907796450468E+006
     9   6.054488365693190E-001  -6.664673544952113E-001  -1.190294764773552E+000  -4.320545973443246E+006   4.320660246725693E+006   0.000000000000000E+000
    10   6.227267323102658E-001   0.000000000000000E+000   0.000000000000000E+000   2.550502171290022E+006  -5.042418557088568E+006   2.491916385798546E+006
    11   6.417848683159209E-001  -7.147663426925455E-001  -1.163750911071721E+000  -2.899888285591446E+006   2.899969964287608E+006   0.000000000000000E+000
    12   6.625416347220497E-001   0.000000000000000E+000   0.000000000000000E+000   1.866102454494147E+006  -3.736177887523318E+006   1.870075433029170E+006
    13   6.849081478682646E-001  -7.444968526313500E-001  -1.145959648227467E+000  -2.142970175860716E+006   2.143030985392936E+006   0.000000000000000E+000
    14   7.087886309115039E-001   0.000000000000000E+000  -7.664192953791912E-001  -1.662258752408095E+006   1.662305358006932E+006   0.000000000000000E+000
    15   7.340808239571780E-001   0.000000000000000E+000  -8.835948842847475E-001  -1.499182161782299E+006   1.499223342251010E+006   0.000000000000000E+000
    16   7.606764219517372E-001   0.000000000000000E+000  -8.887109575302173E-001  -1.369891349867535E+006   1.369927947401315E+006   0.000000000000000E+000
    17   7.884615384615383E-001   0.000000000000000E+000  -8.937381518792644E-001  -1.266775306239367E+006   1.266808014851571E+006   0.000000000000000E+000
    18   8.173171933520378E-001   0.000000000000000E+000  -8.987482928114958E-001  -1.184414565352829E+006   1.184443962162207E+006   0.000000000000000E+000
    19   8.471198222789935E-001   0.000000000000000E+000  -9.037909794088871E-001  -1.118893719213105E+006   1.118920287784245E+006   0.000000000000000E+000
    20   8.777418058099575E-001   0.000000000000000E+000  -9.089007478325208E-001  -1.067359586225246E+006   1.067383734419424E+006   0.000000000000000E+000
    21   9.090520159102780E-001   0.000000000000000E+000  -9.141021480463453E-001  -1.027731296904022E+006   1.027753370820192E+006   0.000000000000000E+000
    22   9.409163774534742E-001   0.000000000000000E+000  -9.194134030554481E-001  -9.985074977831296E+005   9.985277928375136E+005   0.000000000000000E+000
    23   9.731984423515125E-001   0.000000000000000E+000  -9.248490963742642E-001  -9.786378292078007E+005   9.786565990705087E+005   0.000000000000000E+000
    24   1.005759973846467E+000   0.000000000000000E+000  -9.304221956214709E-001  -9.674386901260455E+005   9.674561540229178E+005   0.000000000000000E+000
    25   1.038461538461538E+000   0.000000000000000E+000  -9.361456332383201E-001  -9.645411558091639E+005   9.645575045599604E+005   0.000000000000000E+000
    26   1.071163103076610E+000   0.000000000000000E+000  -9.420336103197581E-001  -9.698639816747593E+005   9.698793827474964E+005   0.000000000000000E+000
    27   1.103724634571564E+000   0.000000000000000E+000  -9.481027559333365E-001  -9.836081799097845E+005   9.836227817092906E+005   0.000000000000000E+000
    28   1.136006699469602E+000   0.000000000000000E+000  -9.543732564919508E-001  -1.006272491571679E+006   1.006286427138625E+006   0.000000000000000E+000
    29   1.167871061012799E+000   0.000000000000000E+000  -9.608700652987219E-001  -1.038691778116391E+006   1.038705168385512E+006   0.000000000000000E+000
    30   1.199181271113119E+000   0.000000000000000E+000  -9.676243113063540E-001  -1.082103466781679E+006   1.082116423531616E+006   0.000000000000000E+000
    31   1.229803254644083E+000   0.000000000000000E+000  -9.746750509391615E-001  -1.138251367756907E+006   1.138263996377811E+006   0.000000000000000E+000
    32   1.259605883571039E+000   0.000000000000000E+000  -9.820715533067862E-001  -1.209542428733848E+006   1.209554830943196E+006   0.000000000000000E+000
    33   1.288461538461538E+000   0.000000000000000E+000  -9.898763882371973E-001  -1.299281969180310E+006   1.299294245834505E+006   0.000000000000000E+000
    34   1.316246654971339E+000   0.000000000000000E+000  -9.981697180566895E-001  -1.412029636622935E+006   1.412041890807392E+006   0.000000000000000E+000
    35   1.342842252965899E+000   0.000000000000000E+000  -1.007055413881045E+000  -1.554147400507767E+006   1.554159741150568E+006   0.000000000000000E+000
    36   1.368134446011573E+000   0.000000000000000E+000  -1.016669992158294E+000  -1.734663477046772E+006   1.734676023407992E+006   0.000000000000000E+000
    37   1.392014929054812E+000   0.000000000000000E+000  -1.027196025703355E+000  -1.966675089035170E+006   1.966687976607552E+006   0.000000000000000E+000
    38   1.414381442201027E+000   0.000000000000000E+000  -1.038882882525638E+000  -2.269708021432882E+006   2.269721410111227E+006   0.000000000000000E+000
    39   1.435138208607156E+000   0.000000000000000E+000  -1.052079925376709E+000  -2.673855603366653E+006   2.673869689326367E+006   0.000000000000000E+000
    40   1.454196344612811E+000   0.000000000000000E+000  -1.067291865311069E+000  -3.227411552763245E+006   3.227426586593462E+006   0.000000000000000E+000
    41   1.471474240353758E+000   0.000000000000000E+000  -1.085275654214714E+000  -4.011822763618518E+006   4.011839079468442E+006   0.000000000000000E+000
    42   1.486897909227882E+000   0.000000000000000E+000  -1.107220454338870E+000  -5.173243062435023E+006   5.173261127677788E+006   0.000000000000000E+000
    43   1.500401304717182E+000   0.000000000000000E+000  -1.135107606164219E+000  -6.995672284744470E+006   6.995692790738941E+006   0.000000000000000E+000
    44   1.511926603209091E+000   0.000000000000000E+000  -1.172502589601113E+000  -1.009262278495068E+007   1.009264682828231E+007   0.000000000000000E+000
    45   1.521424451606072E+000   0.000000000000000E+000  -1.226534963411088E+000  -1.600163407907647E+007   1.600166356906335E+007   0.000000000000000E+000
    46   1.528854178663154E+000   0.000000000000000E+000  -1.313838227615570E+000  -2.955224319151756E+007   2.955228193658965E+007   0.000000000000000E+000
    47   1.534183969148444E+000   0.000000000000000E+000  -1.484309333365132E+000  -7.330548037579823E+007   7.330553788547033E+007   0.000000000000000E+000
    48   1.537391000080840E+000   0.000000000000000E+000   0.000000000000000E+000   1.745120866341796E+009  -1.745120866341796E+009   1.000000000000000E+030
    49   1.538461538461538E+000  -1.987425362360406E+000  -2.507899202265510E-001   1.142961810827255E+002   1.000000000000000E+030   1.000000000000000E+030
 RHS for average pressure
 field ID, l, m:            5           0           0
           1  -2602811.6099538775     
           2  -1887018.2201273004     
           3  -1083102.3813466616     
           4  -534672.73357932956     
           5  -301862.41722225136     
           6  -183855.39038960612     
           7  -34791.615325072664     
           8   61973.302973157115     
           9   48056.016267008534     
          10   12804.768602521202     
          11  -27223.114315665436     
          12  -51822.439336370429     
          13  -3089.2173289000857     
          14   48885.079891359776     
          15   35935.312052614863     
          16   13608.051865248919     
          17  -6904.9033197176732     
          18  -23472.850084171008     
          19   2422.7418923296386     
          20   40238.772329549683     
          21   36596.907189747915     
          22   17840.735430517307     
          23   1433.6132773412974     
          24  -11123.395830943133     
          25  -2955.5394654288066     
          26   18298.965864193269     
          27   18548.876235846597     
          28   4620.2289209049595     
          29  -5600.8292006226766     
          30  -11347.248686407867     
          31  -9994.0207825559846     
          32  -8754.5797642113939     
          33  -14503.620255263264     
          34  -20456.537550119654     
          35  -21936.318503624538     
          36  -19233.189572086023     
          37  -22769.159039170954     
          38  -36580.799136518297     
          39  -41347.995775682684     
          40  -32226.944046589371     
          41  -17661.018839694902     
          42   415.95295649075342     
          43   10180.449332998451     
          44   18518.165257616638     
          45   41910.747916626875     
          46   58919.939360951947     
          47   50127.696590941967     
          48   25497.802500213249     
          49  -39421.442687432063     
 Solution of average pressure
 field ID, l, m:            5           0           0
           1  -16436.171439848946     
           2  -16436.137948859126     
           3  -16436.051330877341     
           4  -16435.934126232722     
           5  -16435.799609380629     
           6  -16435.656765464017     
           7  -16435.511678236551     
           8  -16435.354688759871     
           9  -16435.170453122977     
          10  -16434.961700182761     
          11  -16434.740197334457     
          12  -16434.524411450035     
          13  -16434.330797878869     
          14  -16434.139247561321     
          15  -16433.920581392420     
          16  -16433.682388621281     
          17  -16433.440798019838     
          18  -16433.212760065959     
          19  -16433.013382858422     
          20  -16432.820474831053     
          21  -16432.598980764611     
          22  -16432.353101460703     
          23  -16432.102558077881     
          24  -16431.864678315131     
          25  -16431.652289200778     
          26  -16431.455932291618     
          27  -16431.253108327612     
          28  -16431.044642496541     
          29  -16430.845580662946     
          30  -16430.665672553278     
          31  -16430.509061113891     
          32  -16430.372727233858     
          33  -16430.253968277484     
          34  -16430.155694787372     
          35  -16430.079921726101     
          36  -16430.024707083106     
          37  -16429.985501500243     
          38  -16429.961558254072     
          39  -16429.956122024520     
          40  -16429.966730898203     
          41  -16429.986096910066     
          42  -16430.007407090816     
          43  -16430.025624473565     
          44  -16430.039460907166     
          45  -16430.048871164585     
          46  -16430.053531830155     
          47  -16430.054853685309     
          48  -16430.054960840163     
          49  -16430.054938250643     
