 Matrix for average pressure
k, r, a(k,k-1), a(k,k), a(k,k+1)
     1   5.384615384615384E-001  -1.000000000000000E+030  -1.745117152055719E+009   1.745120866341434E+009
     2   5.395320768422367E-001   4.341517007716752E+008  -5.802316683284662E+008   1.460799675567909E+008
     3   5.427391077746332E-001   7.233437373469011E+007  -1.165506682518483E+008   4.421629451715823E+007
     4   5.480688982599232E-001   2.901068318519428E+007  -5.031295152340897E+007   2.130226833821469E+007
     5   5.554986253170042E-001   1.563049205152470E+007  -2.823657436112545E+007   1.260608230960075E+007
     6   5.649964737139855E-001   9.811972181033149E+006  -1.820502763382994E+007   8.393055452796793E+006
     7   5.765217722058951E-001   6.770901294177487E+006  -1.280684523730546E+007   6.035943943127974E+006
     8   5.900251676951942E-001   4.986305275908343E+006  -9.571578641305983E+006   4.585273365397639E+006
     9   6.054488365693190E-001   3.852120691287336E+006  -7.482028487737804E+006   3.629907796450468E+006
    10   6.227267323102658E-001   3.088180843873032E+006  -6.056411748098360E+006   2.968230904225328E+006
    11   6.417848683159209E-001   2.550502171290030E+006  -5.042418557088596E+006   2.491916385798566E+006
    12   6.625416347220496E-001   2.158957701605365E+006  -4.297496623446100E+006   2.138538921840736E+006
    13   6.849081478682646E-001   1.866102454494129E+006  -3.736177887523282E+006   1.870075433029153E+006
    14   7.087886309115040E-001   1.642413692201781E+006  -3.304719050208709E+006   1.662305358006929E+006
    15   7.340808239571781E-001   1.468763329985343E+006  -2.967986672236362E+006   1.499223342251020E+006
    16   7.606764219517372E-001   1.332339614509776E+006  -2.702267561911093E+006   1.369927947401317E+006
    17   7.884615384615383E-001   1.224324163306001E+006  -2.491132178157572E+006   1.266808014851571E+006
    18   8.173171933520378E-001   1.138512143858391E+006  -2.322956106020598E+006   1.184443962162207E+006
    19   8.471198222789935E-001   1.070463200046384E+006  -2.189383487830629E+006   1.118920287784245E+006
    20   8.777418058099575E-001   1.016963338137899E+006  -2.084347072557317E+006   1.067383734419418E+006
    21   9.090520159102781E-001   9.756756905063520E+005  -2.003429061326547E+006   1.027753370820195E+006
    22   9.409163774534742E-001   9.449099291131208E+005  -1.943437721950636E+006   9.985277928375150E+005
    23   9.731984423515125E-001   9.234687570476549E+005  -1.902125356118164E+006   9.786565990705087E+005
    24   1.005759973846467E+000   9.105463577697519E+005  -1.878002511792670E+006   9.674561540229178E+005
    25   1.038461538461538E+000   9.056635051872979E+005  -1.870221009747258E+006   9.645575045599604E+005
    26   1.071163103076610E+000   9.086301873088991E+005  -1.878509570056395E+006   9.698793827474964E+005
    27   1.103724634571564E+000   9.195307139063049E+005  -1.903153495615555E+006   9.836227817092502E+005
    28   1.136006699469603E+000   9.387293417725966E+005  -1.945015768911250E+006   1.006286427138654E+006
    29   1.167871061012799E+000   9.668971146848275E+005  -2.005602283070353E+006   1.038705168385525E+006
    30   1.199181271113119E+000   1.005063416459445E+006  -2.087179839991060E+006   1.082116423531616E+006
    31   1.229803254644083E+000   1.054699251606876E+006  -2.192963247984687E+006   1.138263996377811E+006
    32   1.259605883571039E+000   1.117844288786599E+006  -2.327399119729795E+006   1.209554830943196E+006
    33   1.288461538461538E+000   1.197297490774685E+006  -2.496591736609112E+006   1.299294245834428E+006
    34   1.316246654971340E+000   1.296903916852800E+006  -2.708945807660252E+006   1.412041890807452E+006
    35   1.342842252965899E+000   1.421992090121701E+006  -2.976151831272301E+006   1.554159741150600E+006
    36   1.368134446011573E+000   1.580055025487064E+006  -3.314731048895056E+006   1.734676023407992E+006
    37   1.392014929054812E+000   1.781839429555207E+006  -3.748527406162759E+006   1.966687976607552E+006
    38   1.414381442201027E+000   2.043145085488222E+006  -4.312866495599448E+006   2.269721410111226E+006
    39   1.435138208607156E+000   2.387914245816024E+006  -5.061783935142391E+006   2.673869689326367E+006
    40   1.454196344612811E+000   2.853784334489649E+006  -6.081210921083110E+006   3.227426586593462E+006
    41   1.471474240353758E+000   3.502631184345258E+006  -7.514470263813701E+006   4.011839079468442E+006
    42   1.486897909227882E+000   4.441972223060714E+006  -9.615233350738501E+006   5.173261127677787E+006
    43   1.500401304717182E+000   5.872187548706273E+006  -1.286788033944521E+007   6.995692790738941E+006
    44   1.511926603209091E+000   8.202443869863629E+006  -1.829509069814593E+007   1.009264682828231E+007
    45   1.521424451606072E+000   1.237895471826140E+007  -2.838061828732475E+007   1.600166356906335E+007
    46   1.528854178663154E+000   2.102355855740675E+007  -5.057584049399640E+007   2.955228193658965E+007
    47   1.534183969148444E+000   4.386467039104570E+007  -1.171702082765161E+008   7.330553788547035E+007
    48   1.537391000080840E+000   1.456891708988744E+008  -5.833480080506039E+008   4.376588371517296E+008
    49   1.538461538461538E+000   1.745120866341796E+009  -1.745120866341796E+009   1.000000000000000E+030
 LU decomposition for average pressure
k, r, a(k,k-2), a(k,k-1), a(k,k), a(k,k+1), a(k,k+2)
     1   5.384615384615384E-001  -1.000000000000000E+030  -1.000000000000000E+030  -1.745117152055719E+009   1.745120866341434E+009   0.000000000000000E+000
     2   5.395320768422367E-001  -1.000000000000000E+030   0.000000000000000E+000   7.233437373469011E+007  -1.165506682518483E+008   4.421629451715823E+007
     3   5.427391077746332E-001  -2.487808341464363E-001  -2.019496899903844E+000  -8.929374565953818E+007   8.929466970263638E+007   0.000000000000000E+000
     4   5.480688982599232E-001   0.000000000000000E+000   0.000000000000000E+000   1.563049205152470E+007  -2.823657436112545E+007   1.260608230960075E+007
     5   5.554986253170042E-001  -3.248904273296706E-001  -1.362846931193040E+000  -1.717986037724921E+007   1.718016059000625E+007   0.000000000000000E+000
     6   5.649964737139855E-001   0.000000000000000E+000   0.000000000000000E+000   6.770901294177487E+006  -1.280684523730546E+007   6.035943943127974E+006
     7   5.765217722058951E-001  -5.711322423799704E-001  -1.239551963167589E+000  -7.481694703088677E+006   7.481866164273798E+006   0.000000000000000E+000
     8   5.900251676951942E-001   0.000000000000000E+000   0.000000000000000E+000   3.852120691287336E+006  -7.482028487737804E+006   3.629907796450468E+006
     9   6.054488365693190E-001  -6.664673544952111E-001  -1.190294764773552E+000  -4.320545973443247E+006   4.320660246725693E+006   0.000000000000000E+000
    10   6.227267323102658E-001   0.000000000000000E+000   0.000000000000000E+000   2.550502171290030E+006  -5.042418557088596E+006   2.491916385798566E+006
    11   6.417848683159209E-001  -7.147663426925451E-001  -1.163750911071718E+000  -2.899888285591462E+006   2.899969964287623E+006   0.000000000000000E+000
    12   6.625416347220496E-001   0.000000000000000E+000   0.000000000000000E+000   1.866102454494129E+006  -3.736177887523282E+006   1.870075433029153E+006
    13   6.849081478682646E-001  -7.444968526313499E-001  -1.145959648227473E+000  -2.142970175860708E+006   2.143030985392928E+006   0.000000000000000E+000
    14   7.087886309115040E-001   0.000000000000000E+000  -7.664192953791892E-001  -1.662258752408092E+006   1.662305358006929E+006   0.000000000000000E+000
    15   7.340808239571781E-001   0.000000000000000E+000  -8.835948842847512E-001  -1.499182161782308E+006   1.499223342251020E+006   0.000000000000000E+000
    16   7.606764219517372E-001   0.000000000000000E+000  -8.887109575302170E-001  -1.369891349867537E+006   1.369927947401317E+006   0.000000000000000E+000
    17   7.884615384615383E-001   0.000000000000000E+000  -8.937381518792628E-001  -1.266775306239367E+006   1.266808014851571E+006   0.000000000000000E+000
    18   8.173171933520378E-001   0.000000000000000E+000  -8.987482928114958E-001  -1.184414565352829E+006   1.184443962162207E+006   0.000000000000000E+000
    19   8.471198222789935E-001   0.000000000000000E+000  -9.037909794088871E-001  -1.118893719213105E+006   1.118920287784245E+006   0.000000000000000E+000
    20   8.777418058099575E-001   0.000000000000000E+000  -9.089007478325190E-001  -1.067359586225240E+006   1.067383734419418E+006   0.000000000000000E+000
    21   9.090520159102781E-001   0.000000000000000E+000  -9.141021480463472E-001  -1.027731296904025E+006   1.027753370820195E+006   0.000000000000000E+000
    22   9.409163774534742E-001   0.000000000000000E+000  -9.194134030554497E-001  -9.985074977831308E+005   9.985277928375150E+005   0.000000000000000E+000
    23   9.731984423515125E-001   0.000000000000000E+000  -9.248490963742629E-001  -9.786378292078006E+005   9.786565990705087E+005   0.000000000000000E+000
    24   1.005759973846467E+000   0.000000000000000E+000  -9.304221956214711E-001  -9.674386901260453E+005   9.674561540229178E+005   0.000000000000000E+000
    25   1.038461538461538E+000   0.000000000000000E+000  -9.361456332383206E-001  -9.645411558091636E+005   9.645575045599604E+005   0.000000000000000E+000
    26   1.071163103076610E+000   0.000000000000000E+000  -9.420336103197585E-001  -9.698639816747588E+005   9.698793827474964E+005   0.000000000000000E+000
    27   1.103724634571564E+000   0.000000000000000E+000  -9.481027559333232E-001  -9.836081799097436E+005   9.836227817092502E+005   0.000000000000000E+000
    28   1.136006699469603E+000   0.000000000000000E+000  -9.543732564919650E-001  -1.006272491571708E+006   1.006286427138654E+006   0.000000000000000E+000
    29   1.167871061012799E+000   0.000000000000000E+000  -9.608700652987346E-001  -1.038691778116405E+006   1.038705168385525E+006   0.000000000000000E+000
    30   1.199181271113119E+000   0.000000000000000E+000  -9.676243113063410E-001  -1.082103466781679E+006   1.082116423531616E+006   0.000000000000000E+000
    31   1.229803254644083E+000   0.000000000000000E+000  -9.746750509391615E-001  -1.138251367756907E+006   1.138263996377811E+006   0.000000000000000E+000
    32   1.259605883571039E+000   0.000000000000000E+000  -9.820715533067862E-001  -1.209542428733847E+006   1.209554830943196E+006   0.000000000000000E+000
    33   1.288461538461538E+000   0.000000000000000E+000  -9.898763882371776E-001  -1.299281969180232E+006   1.299294245834428E+006   0.000000000000000E+000
    34   1.316246654971340E+000   0.000000000000000E+000  -9.981697180567103E-001  -1.412029636622994E+006   1.412041890807452E+006   0.000000000000000E+000
    35   1.342842252965899E+000   0.000000000000000E+000  -1.007055413881066E+000  -1.554147400507799E+006   1.554159741150600E+006   0.000000000000000E+000
    36   1.368134446011573E+000   0.000000000000000E+000  -1.016669992158273E+000  -1.734663477046772E+006   1.734676023407992E+006   0.000000000000000E+000
    37   1.392014929054812E+000   0.000000000000000E+000  -1.027196025703355E+000  -1.966675089035169E+006   1.966687976607552E+006   0.000000000000000E+000
    38   1.414381442201027E+000   0.000000000000000E+000  -1.038882882525638E+000  -2.269708021432880E+006   2.269721410111226E+006   0.000000000000000E+000
    39   1.435138208607156E+000   0.000000000000000E+000  -1.052079925376710E+000  -2.673855603366652E+006   2.673869689326367E+006   0.000000000000000E+000
    40   1.454196344612811E+000   0.000000000000000E+000  -1.067291865311069E+000  -3.227411552763243E+006   3.227426586593462E+006   0.000000000000000E+000
    41   1.471474240353758E+000   0.000000000000000E+000  -1.085275654214715E+000  -4.011822763618515E+006   4.011839079468442E+006   0.000000000000000E+000
    42   1.486897909227882E+000   0.000000000000000E+000  -1.107220454338870E+000  -5.173243062435019E+006   5.173261127677787E+006   0.000000000000000E+000
    43   1.500401304717182E+000   0.000000000000000E+000  -1.135107606164220E+000  -6.995672284744467E+006   6.995692790738941E+006   0.000000000000000E+000
    44   1.511926603209091E+000   0.000000000000000E+000  -1.172502589601114E+000  -1.009262278495068E+007   1.009264682828231E+007   0.000000000000000E+000
    45   1.521424451606072E+000   0.000000000000000E+000  -1.226534963411089E+000  -1.600163407907647E+007   1.600166356906335E+007   0.000000000000000E+000
    46   1.528854178663154E+000   0.000000000000000E+000  -1.313838227615571E+000  -2.955224319151755E+007   2.955228193658965E+007   0.000000000000000E+000
    47   1.534183969148444E+000   0.000000000000000E+000  -1.484309333365132E+000  -7.330548037579823E+007   7.330553788547035E+007   0.000000000000000E+000
    48   1.537391000080840E+000   0.000000000000000E+000   0.000000000000000E+000   1.745120866341796E+009  -1.745120866341796E+009   1.000000000000000E+030
    49   1.538461538461538E+000  -1.987425362360406E+000  -2.507899202265510E-001   1.142961810749120E+002   1.000000000000000E+030   1.000000000000000E+030
 RHS for average pressure
 field ID, l, m:            5           0           0
           1   725431.41327220458     
           2  -1832130.4107180384     
           3  -1061753.6579432334     
           4  -485157.97961284575     
           5  -206474.99937677453     
           6  -79838.873125388811     
           7  -14134.143133029487     
           8   17189.104248456861     
           9   26253.656628527016     
          10   23370.100438432695     
          11   16169.630421220871     
          12   9272.6088896115543     
          13   5002.2797795139741     
          14   3984.4594977711386     
          15   5492.2366977668553     
          16   7981.9006755365490     
          17   9942.8603482202125     
          18   10612.619791018344     
          19   10086.195790935155     
          20   8886.6093630597497     
          21   7472.8623749941871     
          22   6034.8939565080318     
          23   4556.8385992198382     
          24   2953.3945565600261     
          25   1151.6573531165850     
          26  -890.91956135705186     
          27  -3194.1910937672292     
          28  -5761.0728091281053     
          29  -8575.7208922548234     
          30  -11600.668498297355     
          31  -14781.914929978951     
          32  -18065.553030877905     
          33  -21415.635324710402     
          34  -24806.320136677798     
          35  -28160.523199301253     
          36  -31239.399033579171     
          37  -33535.927742126776     
          38  -34242.195924685926     
          39  -32325.620425222540     
          40  -26699.670415207751     
          41  -16339.221636867584     
          42   13.717767559184722     
          43   24040.789634284742     
          44   55260.046727952926     
          45   85818.491719380982     
          46   101866.24810200698     
          47   96536.077601797384     
          48   79982.907856346530     
          49   107758.11753393387     
 Solution of average pressure
 field ID, l, m:            5           0           0
           1  -15079.956197346135     
           2  -15079.923685731390     
           3  -15079.839602727881     
           4  -15079.726062283180     
           5  -15079.594211165466     
           6  -15079.447105760113     
           7  -15079.284643438787     
           8  -15079.104740807345     
           9  -15078.905354975424     
          10  -15078.686530699473     
          11  -15078.450990049110     
          12  -15078.203422926030     
          13  -15077.949156075707     
          14  -15077.692754507734     
          15  -15077.437024173114     
          16  -15077.182826173512     
          17  -15076.929776393679     
          18  -15076.677364176065     
          19  -15076.425780306909     
          20  -15076.176077559980     
          21  -15075.929844513750     
          22  -15075.688817369675     
          23  -15075.454688848413     
          24  -15075.229106950401     
          25  -15075.013741975661     
          26  -15074.810332791300     
          27  -15074.620687760174     
          28  -15074.446647220504     
          29  -15074.290015982931     
          30  -15074.152469184153     
          31  -15074.035436872055     
          32  -15073.939982761754     
          33  -15073.866701851501     
          34  -15073.815656128132     
          35  -15073.786340370072     
          36  -15073.777637112278     
          37  -15073.787718402718     
          38  -15073.813904136887     
          39  -15073.852562383494     
          40  -15073.899175798762     
          41  -15073.948665477426     
          42  -15073.995946365238     
          43  -15074.036541005138     
          44  -15074.067179650332     
          45  -15074.086604854050     
          46  -15074.096269175814     
          47  -15074.099697411462     
          48  -15074.100431903709     
          49  -15074.100493651937     
